    #Theta        Bulk       Young   Shear_min   Shear_max Poisson_min Poisson_max Compressibility
     0.00000   259.41031   293.29224    78.58725   139.27170     0.14203     0.48110     1.28497
     0.99723   259.41389   293.36830    78.59762   139.17738     0.14217     0.48087     1.28495
     1.99446   259.42461   293.59624    78.62874   138.89565     0.14259     0.48017     1.28489
     2.99169   259.44247   293.97536    78.68063   138.43013     0.14329     0.47901     1.28481
     3.98892   259.46744   294.50446    78.75329   137.78673     0.14427     0.47739     1.28468
     4.98615   259.49951   295.18183    78.84676   136.97351     0.14553     0.47531     1.28452
     5.98338   259.53863   296.00526    78.96108   136.00042     0.14707     0.47277     1.28433
     6.98061   259.58477   296.97199    79.09627   134.87905     0.14889     0.46978     1.28410
     7.97784   259.63787   298.07865    79.25240   133.62231     0.15099     0.46633     1.28384
     8.97507   259.69789   299.32129    79.42951   132.24414     0.15337     0.46244     1.28354
     9.97230   259.76476   300.69528    79.62767   130.75919     0.15604     0.45811     1.28321
    10.96953   259.83840   302.19529    79.84695   129.18248     0.15899     0.45334     1.28285
    11.96676   259.91875   303.81525    80.08742   127.52916     0.16223     0.44815     1.28245
    12.96399   260.00571   305.54827    80.34915   125.81419     0.16575     0.44254     1.28202
    13.96122   260.09919   307.38664    80.63223   124.05217     0.16954     0.43653     1.28156
    14.95845   260.19909   309.32171    80.93675   122.25710     0.17362     0.43012     1.28107
    15.95568   260.30532   311.34394    81.26280   120.44226     0.17797     0.42334     1.28055
    16.95291   260.41774   313.44276    81.61048   118.62008     0.18260     0.41620     1.27999
    17.95014   260.53625   315.60662    81.97987   116.80204     0.18749     0.40872     1.27941
    18.94737   260.66072   317.82290    82.37107   114.99868     0.19265     0.40092     1.27880
    19.94460   260.79101   320.07797    82.78419   113.21953     0.19806     0.39283     1.27816
    20.94183   260.92698   322.35710    83.21932   111.47313     0.20371     0.38448     1.27750
    21.93906   261.06848   324.64459    83.67655   109.76706     0.20960     0.37589     1.27680
    22.93629   261.21536   326.92372    84.15598   108.10796     0.21572     0.36710     1.27609
    23.93352   261.36746   329.17688    84.65769   106.50164     0.22204     0.35815     1.27534
    24.93075   261.52461   331.38560    85.18177   104.95306     0.22855     0.34908     1.27458
    25.92798   261.68665   333.53075    85.72828   103.46646     0.23523     0.33992     1.27379
    26.92521   261.85338   335.59262    86.29730   102.04540     0.24207     0.33073     1.27298
    27.92244   262.02463   337.55110    86.88889   100.69284     0.24903     0.32155     1.27215
    28.91967   262.20020   339.38595    87.50307    99.41119     0.25610     0.31244     1.27129
    29.91690   262.37991   341.07695    88.13989    98.20242     0.26325     0.30344     1.27042
    30.91413   262.56354   342.60423    88.79935    97.06805     0.27045     0.29460     1.26953
    31.91136   262.75089   343.94848    89.48145    96.00928     0.27767     0.28599     1.26863
    32.90859   262.94175   345.09129    90.18617    95.02700     0.27765     0.28487     1.26771
    33.90582   263.13591   346.01544    90.91344    94.12185     0.26964     0.29204     1.26677
    34.90305   263.33313   346.70518    91.66320    93.29430     0.26201     0.29912     1.26582
    35.90028   263.53319   347.14650    92.43533    92.54460     0.25481     0.30610     1.26486
    36.89751   263.73587   347.32746    91.87293    93.22970     0.24808     0.31293     1.26389
    37.89474   263.94092   347.23837    91.27935    94.04614     0.24187     0.31960     1.26291
    38.89197   264.14812   346.87201    90.76383    94.88442     0.23622     0.32605     1.26192
    39.88920   264.35721   346.22380    90.32634    95.74430     0.23116     0.33228     1.26092
    40.88643   264.56795   345.29191    89.96679    96.62547     0.22672     0.33824     1.25992
    41.88366   264.78010   344.07728    89.68511    97.52759     0.22292     0.34392     1.25891
    42.88089   264.99339   342.58364    89.48120    98.45025     0.21977     0.34929     1.25789
    43.87812   265.20758   340.81745    89.35500    99.39298     0.21730     0.35434     1.25688
    44.87535   265.42241   338.78777    89.30646   100.35527     0.21549     0.35904     1.25586
    45.87258   265.63763   336.50608    89.33558   101.33653     0.21434     0.36339     1.25484
    46.86981   265.85296   333.98608    89.44236   102.33609     0.21385     0.36738     1.25383
    47.86704   266.06815   331.24342    89.62684   103.35324     0.21400     0.37101     1.25281
    48.86427   266.28294   328.29542    89.88908   104.38715     0.21477     0.37427     1.25180
    49.86150   266.49706   325.16079    90.22915   105.43693     0.21613     0.37716     1.25080
    50.85873   266.71024   321.85927    90.64715   106.50161     0.21805     0.37969     1.24980
    51.85596   266.92223   318.41135    91.14315   107.58012     0.22049     0.38187     1.24880
    52.85319   267.13277   314.83796    91.71722   108.67130     0.22342     0.38372     1.24782
    53.85042   267.34157   311.16017    92.36937   109.77388     0.22680     0.38523     1.24684
    54.84765   267.54840   307.39893    93.09957   110.88651     0.23058     0.38643     1.24588
    55.84488   267.75297   303.57483    93.90768   112.00772     0.23473     0.38734     1.24493
    56.84211   267.95504   299.70788    94.79346   113.13595     0.23919     0.38797     1.24399
    57.83934   268.15434   295.81733    95.75651   114.26952     0.24394     0.38834     1.24307
    58.83657   268.35063   291.92155    96.79623   115.40664     0.24891     0.38848     1.24216
    59.83380   268.54364   288.03787    97.91180   116.54544     0.25407     0.38839     1.24126
    60.83102   268.73313   284.18251    99.10210   117.68390     0.25939     0.38811     1.24039
    61.82825   268.91886   280.37057   100.36569   118.81993     0.26481     0.38766     1.23953
    62.82548   269.10058   276.61592   101.70073   119.95132     0.27031     0.38704     1.23869
    63.82271   269.27806   272.93128   103.10492   121.07576     0.27585     0.38629     1.23788
    64.81994   269.45105   269.32815   104.57545   122.19084     0.28139     0.38543     1.23708
    65.81717   269.61935   265.81692   106.10890   123.29407     0.28691     0.38446     1.23631
    66.81440   269.78271   262.40685   107.70123   124.38286     0.29237     0.38341     1.23556
    67.81163   269.94093   259.10614   109.34764   125.45458     0.29774     0.38230     1.23484
    68.80886   270.09379   255.92203   111.04256   126.50648     0.30302     0.38114     1.23414
    69.80609   270.24110   252.86082   112.77955   127.53581     0.30816     0.37994     1.23347
    70.80332   270.38265   249.92797   114.55128   128.53974     0.31315     0.37873     1.23282
    71.80055   270.51825   247.12814   116.34944   129.51543     0.31798     0.37751     1.23220
    72.79778   270.64773   244.46531   118.16475   130.46001     0.32262     0.37629     1.23161
    73.79501   270.77090   241.94282   119.98694   131.37062     0.32707     0.37509     1.23105
    74.79224   270.88760   239.56345   121.80475   132.24442     0.33130     0.37391     1.23052
    75.78947   270.99767   237.32946   123.60597   133.07861     0.33531     0.37277     1.23002
    76.78670   271.10096   235.24271   125.37754   133.87042     0.33909     0.37167     1.22955
    77.78393   271.19733   233.30466   127.10562   134.61718     0.34262     0.37062     1.22912
    78.78116   271.28665   231.51646   128.77574   135.31629     0.34590     0.36964     1.22871
    79.77839   271.36880   229.87898   130.37302   135.96529     0.34892     0.36871     1.22834
    80.77562   271.44366   228.39288   131.88233   136.56181     0.35167     0.36786     1.22800
    81.77285   271.51113   227.05862   133.28859   137.10368     0.35416     0.36708     1.22770
    82.77008   271.57112   225.87652   134.57702   137.58884     0.35637     0.36638     1.22743
    83.76731   271.62355   224.84680   135.73350   138.01547     0.35831     0.36576     1.22719
    84.76454   271.66833   223.96956   136.74480   138.38192     0.35996     0.36523     1.22699
    85.76177   271.70542   223.24489   137.59899   138.68676     0.36133     0.36479     1.22682
    86.75900   271.73476   222.67279   138.28567   138.92878     0.36241     0.36444     1.22669
    87.75623   271.75630   222.25326   138.79631   139.10704     0.36321     0.36418     1.22659
    88.75346   271.77003   221.98630   139.12442   139.22082     0.36371     0.36401     1.22653
    89.75069   271.77592   221.87189   139.26580   139.26966     0.36393     0.36394     1.22650
    90.74792   271.77395   221.91002   139.21862   139.25338     0.36386     0.36397     1.22651
    91.74515   271.76415   222.10071   138.98350   139.17202     0.36350     0.36409     1.22655
    92.74238   271.74651   222.44395   138.56345   139.02593     0.36285     0.36430     1.22663
    93.73961   271.72106   222.93976   137.96385   138.81569     0.36191     0.36460     1.22675
    94.73684   271.68784   223.58815   137.19222   138.54212     0.36068     0.36500     1.22690
    95.73407   271.64690   224.38911   136.25808   138.20631     0.35917     0.36549     1.22708
    96.73130   271.59828   225.34260   135.17261   137.80958     0.35737     0.36606     1.22730
    97.72853   271.54207   226.44854   133.94844   137.35347     0.35530     0.36672     1.22756
    98.72576   271.47833   227.70675   132.59927   136.83971     0.35295     0.36746     1.22785
    99.72299   271.40715   229.11698   131.13962   136.27025     0.35033     0.36828     1.22817
   100.72022   271.32863   230.67884   129.58443   135.64720     0.34744     0.36917     1.22852
   101.71745   271.24288   232.39177   127.94885   134.97285     0.34429     0.37012     1.22891
   102.71468   271.15002   234.25502   126.24791   134.24959     0.34088     0.37114     1.22933
   103.71191   271.05017   236.26758   124.49631   133.47998     0.33723     0.37221     1.22978
   104.70914   270.94347   238.42816   122.70823   132.66664     0.33333     0.37333     1.23027
   105.70637   270.83007   240.73509   120.89713   131.81230     0.32921     0.37449     1.23078
   106.70360   270.71011   243.18634   119.07567   130.91974     0.32487     0.37568     1.23133
   107.70083   270.58377   245.77938   117.25557   129.99179     0.32033     0.37690     1.23190
   108.69806   270.45121   248.51116   115.44761   129.03129     0.31559     0.37812     1.23251
   109.69529   270.31261   251.37804   113.66157   128.04113     0.31068     0.37934     1.23314
   110.69252   270.16815   254.37571   111.90623   127.02415     0.30560     0.38055     1.23380
   111.68975   270.01804   257.49910   110.18942   125.98318     0.30039     0.38173     1.23449
   112.68698   269.86248   260.74235   108.51800   124.92102     0.29507     0.38286     1.23520
   113.68421   269.70166   264.09870   106.89799   123.84043     0.28964     0.38395     1.23593
   114.68144   269.53580   267.56045   105.33454   122.74409     0.28415     0.38495     1.23669
   115.67867   269.36513   271.11885   103.83209   121.63462     0.27862     0.38587     1.23748
   116.67590   269.18987   274.76410   102.39435   120.51456     0.27308     0.38668     1.23828
   117.67313   269.01024   278.48526   101.02442   119.38635     0.26756     0.38737     1.23911
   118.67036   268.82648   282.27022    99.72484   118.25236     0.26209     0.38791     1.23996
   119.66759   268.63884   286.10568    98.49769   117.11484     0.25671     0.38828     1.24082
   120.66482   268.44756   289.97716    97.34459   115.97595     0.25147     0.38846     1.24171
   121.66205   268.25288   293.86899    96.26683   114.83775     0.24640     0.38844     1.24261
   122.65928   268.05505   297.76439    95.26536   113.70217     0.24153     0.38819     1.24353
   123.65651   267.85433   301.64549    94.34088   112.57106     0.23692     0.38769     1.24446
   124.65374   267.65098   305.49347    93.49390   111.44614     0.23261     0.38692     1.24540
   125.65097   267.44525   309.28868    92.72472   110.32903     0.22864     0.38587     1.24636
   126.64820   267.23740   313.01080    92.03353   109.22125     0.22506     0.38451     1.24733
   127.64543   267.02770   316.63902    91.42042   108.12421     0.22190     0.38284     1.24831
   128.64266   266.81641   320.15231    90.88539   107.03921     0.21920     0.38083     1.24930
   129.63989   266.60378   323.52963    90.42840   105.96748     0.21702     0.37847     1.25029
   130.63712   266.39010   326.75022    90.04938   104.91011     0.21538     0.37576     1.25130
   131.63435   266.17561   329.79395    89.74823   103.86815     0.21431     0.37268     1.25231
   132.63158   265.96059   332.64153    89.52488   102.84252     0.21385     0.36924     1.25332
   133.62881   265.74529   335.27493    89.37926   101.83406     0.21402     0.36543     1.25433
   134.62604   265.52999   337.67762    89.31132   100.84357     0.21483     0.36126     1.25535
   135.62327   265.31493   339.83488    89.32102    99.87171     0.21631     0.35673     1.25637
   136.62050   265.10039   341.73411    89.40839    98.91913     0.21845     0.35185     1.25739
   137.61773   264.88662   343.36499    89.57343    97.98638     0.22126     0.34664     1.25840
   138.61496   264.67387   344.71977    89.81622    97.07394     0.22474     0.34112     1.25941
   139.61219   264.46239   345.79332    90.13683    96.18225     0.22886     0.33529     1.26042
   140.60942   264.25244   346.58332    90.53534    95.31168     0.23361     0.32920     1.26142
   141.60665   264.04427   347.09020    91.01183    94.46256     0.23897     0.32285     1.26241
   142.60388   263.83811   347.31718    91.56638    93.63517     0.24491     0.31629     1.26340
   143.60111   263.63422   347.27019    92.19901    92.82975     0.25138     0.30954     1.26438
   144.59834   263.43282   346.95769    92.04648    92.90971     0.25835     0.30263     1.26534
   145.59557   263.23415   346.39053    91.28552    93.69836     0.26577     0.29559     1.26630
   146.59280   263.03843   345.58172    90.54699    94.56475     0.27360     0.28846     1.26724
   147.59003   262.84590   344.54617    89.83099    95.50853     0.28127     0.28178     1.26817
   148.58726   262.65676   343.30041    89.13757    96.52915     0.27406     0.29026     1.26908
   149.58449   262.47125   341.86228    88.46679    97.62585     0.26685     0.29900     1.26998
   150.58172   262.28955   340.25068    87.81865    98.79759     0.25967     0.30792     1.27086
   151.57895   262.11189   338.48525    87.19315   100.04302     0.25256     0.31698     1.27172
   152.57618   261.93845   336.58605    86.59027   101.36039     0.24554     0.32614     1.27256
   153.57341   261.76944   334.57334    86.00998   102.74754     0.23863     0.33533     1.27339
   154.57064   261.60503   332.46735    85.45222   104.20177     0.23187     0.34451     1.27419
   155.56787   261.44542   330.28798    84.91693   105.71985     0.22527     0.35363     1.27496
   156.56510   261.29077   328.05468    84.40405   107.29787     0.21885     0.36265     1.27572
   157.56233   261.14126   325.78628    83.91349   108.93126     0.21263     0.37152     1.27645
   158.55956   260.99704   323.50082    83.44517   110.61462     0.20663     0.38021     1.27715
   159.55679   260.85829   321.21548    82.99900   112.34174     0.20086     0.38869     1.27783
   160.55402   260.72514   318.94648    82.57489   114.10553     0.19532     0.39691     1.27849
   161.55125   260.59775   316.70904    82.17274   115.89791     0.19004     0.40486     1.27911
   162.54848   260.47625   314.51732    81.79245   117.70986     0.18501     0.41250     1.27971
   163.54571   260.36076   312.38447    81.43393   119.53135     0.18025     0.41981     1.28027
   164.54294   260.25142   310.32257    81.09708   121.35136     0.17576     0.42678     1.28081
   165.54017   260.14834   308.34266    80.78181   123.15792     0.17155     0.43337     1.28132
   166.53740   260.05164   306.45480    80.48802   124.93817     0.16761     0.43958     1.28180
   167.53463   259.96140   304.66809    80.21562   126.67846     0.16395     0.44540     1.28224
   168.53186   259.87774   302.99069    79.96453   128.36445     0.16058     0.45080     1.28265
   169.52909   259.80074   301.42989    79.73467   129.98136     0.15748     0.45578     1.28303
   170.52632   259.73047   299.99218    79.52596   131.51408     0.15467     0.46033     1.28338
   171.52355   259.66702   298.68324    79.33833   132.94750     0.15215     0.46444     1.28370
   172.52078   259.61045   297.50806    79.17172   134.26675     0.14990     0.46811     1.28398
   173.51801   259.56082   296.47091    79.02606   135.45749     0.14794     0.47133     1.28422
   174.51524   259.51819   295.57545    78.90131   136.50626     0.14626     0.47410     1.28443
   175.51247   259.48259   294.82474    78.79743   137.40077     0.14486     0.47641     1.28461
   176.50970   259.45407   294.22126    78.71436   138.13021     0.14374     0.47826     1.28475
   177.50693   259.43265   293.76697    78.65209   138.68554     0.14291     0.47965     1.28485
   178.50416   259.41836   293.46332    78.61059   139.05977     0.14235     0.48058     1.28493
   179.50139   259.41121   293.31126    78.58984   139.24810     0.14207     0.48104     1.28496
   180.49861   259.41121   293.31126    78.58984   139.24810     0.14207     0.48104     1.28496
   181.49584   259.41836   293.46332    78.61059   139.05977     0.14235     0.48058     1.28493
   182.49307   259.43265   293.76697    78.65209   138.68554     0.14291     0.47965     1.28485
   183.49030   259.45407   294.22126    78.71436   138.13021     0.14374     0.47826     1.28475
   184.48753   259.48259   294.82474    78.79743   137.40077     0.14486     0.47641     1.28461
   185.48476   259.51819   295.57545    78.90131   136.50626     0.14626     0.47410     1.28443
   186.48199   259.56082   296.47091    79.02606   135.45749     0.14794     0.47133     1.28422
   187.47922   259.61045   297.50806    79.17172   134.26675     0.14990     0.46811     1.28398
   188.47645   259.66702   298.68324    79.33833   132.94750     0.15215     0.46444     1.28370
   189.47368   259.73047   299.99218    79.52596   131.51408     0.15467     0.46033     1.28338
   190.47091   259.80074   301.42989    79.73467   129.98136     0.15748     0.45578     1.28303
   191.46814   259.87774   302.99069    79.96453   128.36445     0.16058     0.45080     1.28265
   192.46537   259.96140   304.66809    80.21562   126.67846     0.16395     0.44540     1.28224
   193.46260   260.05164   306.45480    80.48802   124.93817     0.16761     0.43958     1.28180
   194.45983   260.14834   308.34266    80.78181   123.15792     0.17155     0.43337     1.28132
   195.45706   260.25142   310.32257    81.09708   121.35136     0.17576     0.42678     1.28081
   196.45429   260.36076   312.38447    81.43393   119.53135     0.18025     0.41981     1.28027
   197.45152   260.47625   314.51732    81.79245   117.70986     0.18501     0.41250     1.27971
   198.44875   260.59775   316.70904    82.17274   115.89791     0.19004     0.40486     1.27911
   199.44598   260.72514   318.94648    82.57489   114.10553     0.19532     0.39691     1.27849
   200.44321   260.85829   321.21548    82.99900   112.34174     0.20086     0.38869     1.27783
   201.44044   260.99704   323.50082    83.44517   110.61462     0.20663     0.38021     1.27715
   202.43767   261.14126   325.78628    83.91349   108.93126     0.21263     0.37152     1.27645
   203.43490   261.29077   328.05468    84.40405   107.29787     0.21885     0.36265     1.27572
