    #Theta        Bulk       Young   Shear_min   Shear_max Poisson_min Poisson_max Compressibility
     0.00000   278.00724   299.35874    84.26049   133.30840     0.14152     0.49956     1.19901
     0.99723   277.99979   299.42705    84.26988   133.22624     0.14166     0.49932     1.19904
     1.99446   277.97745   299.63170    84.29805   132.98077     0.14208     0.49863     1.19914
     2.99169   277.94026   299.97188    84.34501   132.57498     0.14278     0.49747     1.19930
     3.98892   277.88828   300.44620    84.41077   132.01372     0.14377     0.49584     1.19952
     4.98615   277.82158   301.05272    84.49532   131.30366     0.14504     0.49376     1.19981
     5.98338   277.74026   301.78890    84.59868   130.45302     0.14659     0.49122     1.20016
     6.98061   277.64446   302.65161    84.72087   129.47143     0.14842     0.48823     1.20058
     7.97784   277.53431   303.63706    84.86189   128.36965     0.15053     0.48479     1.20105
     8.97507   277.40999   304.74080    85.02176   127.15934     0.15293     0.48090     1.20159
     9.97230   277.27167   305.95771    85.20050   125.85283     0.15561     0.47658     1.20219
    10.96953   277.11958   307.28189    85.39812   124.46283     0.15857     0.47182     1.20285
    11.96676   276.95394   308.70672    85.61464   123.00222     0.16181     0.46665     1.20357
    12.96399   276.77500   310.22474    85.85007   121.48382     0.16533     0.46106     1.20435
    13.96122   276.58303   311.82768    86.10444   119.92022     0.16912     0.45508     1.20518
    14.95845   276.37831   313.50638    86.37776   118.32359     0.17319     0.44871     1.20608
    15.95568   276.16115   315.25082    86.67003   116.70556     0.17752     0.44197     1.20702
    16.95291   275.93188   317.05003    86.98127   115.07711     0.18212     0.43488     1.20803
    17.95014   275.69082   318.89214    87.31149   113.44850     0.18697     0.42746     1.20908
    18.94737   275.43834   320.76437    87.66069   111.82919     0.19208     0.41974     1.21019
    19.94460   275.17480   322.65302    88.02887   110.22785     0.19743     0.41173     1.21135
    20.94183   274.90058   324.54352    88.41602   108.65234     0.20301     0.40347     1.21256
    21.93906   274.61609   326.42048    88.82212   107.10971     0.20880     0.39498     1.21382
    22.93629   274.32173   328.26775    89.24715   105.60624     0.21481     0.38631     1.21512
    23.93352   274.01793   330.06853    89.69108   104.14744     0.22100     0.37749     1.21647
    24.93075   273.70510   331.80546    90.15388   102.73815     0.22736     0.36855     1.21786
    25.92798   273.38371   333.46075    90.63548   101.38255     0.23388     0.35954     1.21929
    26.92521   273.05418   335.01638    91.13582   100.08421     0.24053     0.35050     1.22076
    27.92244   272.71700   336.45426    91.65483    98.84619     0.24729     0.34147     1.22227
    28.91967   272.37262   337.75643    92.19240    97.67103     0.25413     0.33252     1.22381
    29.91690   272.02151   338.90529    92.74843    96.56085     0.26103     0.32368     1.22539
    30.91413   271.66416   339.88386    93.32278    95.51739     0.26796     0.31500     1.22701
    31.91136   271.30104   340.67599    93.91530    94.54205     0.27490     0.30653     1.22865
    32.90859   270.93266   341.26665    93.63594    94.52582     0.28180     0.29833     1.23032
    33.90582   270.55949   341.64214    92.79994    95.15414     0.28865     0.29044     1.23201
    34.90305   270.18203   341.79038    92.03471    95.80004     0.28291     0.29541     1.23374
    35.90028   269.80078   341.70109    91.34076    96.46327     0.27579     0.30205     1.23548
    36.89751   269.41624   341.36601    90.71843    97.14354     0.26911     0.30854     1.23724
    37.89474   269.02890   340.77908    90.16799    97.84054     0.26291     0.31485     1.23902
    38.89197   268.63925   339.93652    89.68960    98.55393     0.25723     0.32096     1.24082
    39.88920   268.24780   338.83698    89.28335    99.28331     0.25210     0.32684     1.24263
    40.88643   267.85503   337.48154    88.94930   100.02827     0.24755     0.33247     1.24445
    41.88366   267.46144   335.87372    88.68748   100.78833     0.24358     0.33782     1.24629
    42.88089   267.06750   334.01942    88.49788   101.56301     0.24022     0.34288     1.24812
    43.87812   266.67372   331.92681    88.38052   102.35173     0.23747     0.34763     1.24997
    44.87535   266.28056   329.60619    88.33538   103.15390     0.23533     0.35206     1.25181
    45.87258   265.88849   327.06983    88.36247   103.96887     0.23381     0.35616     1.25366
    46.86981   265.49800   324.33170    88.46177   104.79594     0.23288     0.35992     1.25550
    47.86704   265.10953   321.40728    88.63331   105.63435     0.23254     0.36334     1.25734
    48.86427   264.72355   318.31328    88.87707   106.48328     0.23276     0.36643     1.25918
    49.86150   264.34050   315.06737    89.19307   107.34188     0.23353     0.36917     1.26100
    50.85873   263.96082   311.68792    89.58127   108.20921     0.23481     0.37159     1.26281
    51.85596   263.58496   308.19373    90.04164   109.08427     0.23657     0.37368     1.26461
    52.85319   263.21333   304.60378    90.57408   109.96602     0.23879     0.37546     1.26640
    53.85042   262.84635   300.93699    91.17845   110.85335     0.24142     0.37694     1.26817
    54.84765   262.48443   297.21200    91.85452   111.74506     0.24443     0.37813     1.26992
    55.84488   262.12797   293.44701    92.60197   112.63993     0.24778     0.37906     1.27164
    56.84211   261.77736   289.65958    93.42034   113.53665     0.25143     0.37973     1.27335
    57.83934   261.43298   285.86651    94.30899   114.43384     0.25535     0.38016     1.27502
    58.83657   261.09520   282.08374    95.26712   115.33008     0.25949     0.38038     1.27667
    59.83380   260.76437   278.32625    96.29367   116.22387     0.26382     0.38040     1.27829
    60.83102   260.44086   274.60802    97.38732   117.11367     0.26830     0.38023     1.27988
    61.82825   260.12499   270.94199    98.54642   117.99785     0.27290     0.37990     1.28144
    62.82548   259.81710   267.34003    99.76895   118.87478     0.27758     0.37943     1.28295
    63.82271   259.51751   263.81298   101.05247   119.74272     0.28232     0.37883     1.28443
    64.81994   259.22652   260.37063   102.39406   120.59993     0.28707     0.37812     1.28588
    65.81717   258.94442   257.02178   103.79030   121.44460     0.29182     0.37732     1.28728
    66.81440   258.67151   253.77427   105.23715   122.27491     0.29654     0.37644     1.28864
    67.81163   258.40805   250.63504   106.72995   123.08899     0.30120     0.37549     1.28995
    68.80886   258.15431   247.61018   108.26335   123.88496     0.30578     0.37450     1.29122
    69.80609   257.91054   244.70497   109.83126   124.66092     0.31026     0.37348     1.29244
    70.80332   257.67698   241.92400   111.42685   125.41496     0.31462     0.37243     1.29361
    71.80055   257.45386   239.27117   113.04245   126.14517     0.31884     0.37137     1.29473
    72.79778   257.24138   236.74980   114.66959   126.84967     0.32291     0.37031     1.29580
    73.79501   257.03977   234.36265   116.29901   127.52658     0.32681     0.36926     1.29682
    74.79224   256.84921   232.11203   117.92065   128.17405     0.33054     0.36823     1.29778
    75.78947   256.66988   229.99980   119.52370   128.79027     0.33407     0.36723     1.29869
    76.78670   256.50195   228.02748   121.09667   129.37350     0.33740     0.36627     1.29954
    77.78393   256.34559   226.19624   122.62754   129.92204     0.34052     0.36535     1.30033
    78.78116   256.20094   224.50702   124.10379   130.43425     0.34342     0.36448     1.30106
    79.77839   256.06813   222.96050   125.51265   130.90861     0.34610     0.36367     1.30174
    80.77562   255.94730   221.55720   126.84124   131.34365     0.34854     0.36291     1.30235
    81.77285   255.83854   220.29746   128.07677   131.73803     0.35075     0.36223     1.30291
    82.77008   255.74197   219.18152   129.20681   132.09050     0.35271     0.36161     1.30340
    83.76731   255.65768   218.20951   130.21950   132.39994     0.35443     0.36106     1.30383
    84.76454   255.58573   217.38152   131.10383   132.66536     0.35590     0.36059     1.30419
    85.76177   255.52620   216.69756   131.84986   132.88589     0.35712     0.36020     1.30450
    86.75900   255.47914   216.15762   132.44901   133.06082     0.35808     0.35989     1.30474
    87.75623   255.44459   215.76170   132.89420   133.18955     0.35879     0.35966     1.30491
    88.75346   255.42260   215.50976   133.18010   133.27168     0.35924     0.35951     1.30503
    89.75069   255.41316   215.40179   133.30326   133.30693     0.35944     0.35945     1.30507
    90.74792   255.41631   215.43778   133.26217   133.29518     0.35937     0.35947     1.30506
    91.74515   255.43202   215.61773   133.05732   133.23647     0.35905     0.35957     1.30498
    92.74238   255.46030   215.94166   132.69122   133.13099     0.35847     0.35976     1.30483
    93.73961   255.50111   216.40959   132.16828   132.97909     0.35763     0.36003     1.30463
    94.73684   255.55441   217.02153   131.49470   132.78129     0.35654     0.36039     1.30435
    95.73407   255.62015   217.77751   130.67836   132.53821     0.35520     0.36082     1.30402
    96.73130   255.69829   218.67752   129.72853   132.25067     0.35360     0.36133     1.30362
    97.72853   255.78873   219.72150   128.65573   131.91958     0.35176     0.36191     1.30316
    98.72576   255.89140   220.90937   127.47143   131.54600     0.34967     0.36256     1.30264
    99.72299   256.00621   222.24093   126.18779   131.13113     0.34735     0.36328     1.30205
   100.72022   256.13305   223.71589   124.81745   130.67626     0.34479     0.36407     1.30141
   101.71745   256.27179   225.33383   123.37328   130.18278     0.34200     0.36491     1.30070
   102.71468   256.42232   227.09416   121.86814   129.65221     0.33898     0.36581     1.29994
   103.71191   256.58448   228.99607   120.31468   129.08612     0.33576     0.36675     1.29912
   104.70914   256.75813   231.03851   118.72520   128.48618     0.33233     0.36773     1.29824
   105.70637   256.94310   233.22015   117.11146   127.85411     0.32870     0.36874     1.29730
   106.70360   257.13921   235.53929   115.48463   127.19169     0.32488     0.36978     1.29631
   107.70083   257.34627   237.99387   113.85514   126.50076     0.32089     0.37084     1.29527
   108.69806   257.56410   240.58135   112.23266   125.78316     0.31675     0.37190     1.29418
   109.69529   257.79247   243.29870   110.62606   125.04080     0.31245     0.37295     1.29303
   110.69252   258.03117   246.14231   109.04340   124.27556     0.30803     0.37399     1.29183
   111.68975   258.27995   249.10796   107.49193   123.48936     0.30350     0.37500     1.29059
   112.68698   258.53858   252.19072   105.97812   122.68410     0.29888     0.37597     1.28930
   113.68421   258.80680   255.38491   104.50767   121.86167     0.29419     0.37689     1.28796
   114.68144   259.08434   258.68401   103.08559   121.02394     0.28945     0.37773     1.28658
   115.67867   259.37092   262.08065   101.71621   120.17278     0.28469     0.37849     1.28516
   116.67590   259.66625   265.56651   100.40325   119.30998     0.27995     0.37915     1.28370
   117.67313   259.97003   269.13230    99.14990   118.43733     0.27523     0.37968     1.28220
   118.67036   260.28195   272.76771    97.95881   117.55656     0.27059     0.38009     1.28066
   119.66759   260.60168   276.46139    96.83221   116.66937     0.26604     0.38033     1.27909
   120.66482   260.92889   280.20093    95.77192   115.77738     0.26163     0.38041     1.27749
   121.66205   261.26324   283.97287    94.77943   114.88217     0.25739     0.38030     1.27585
   122.65928   261.60437   287.76273    93.85592   113.98527     0.25336     0.37997     1.27419
   123.65651   261.95191   291.55503    93.00233   113.08814     0.24957     0.37942     1.27250
   124.65374   262.30549   295.33339    92.21935   112.19218     0.24606     0.37863     1.27078
   125.65097   262.66473   299.08062    91.50754   111.29873     0.24288     0.37757     1.26904
   126.64820   263.02923   302.77882    90.86728   110.40906     0.24005     0.37624     1.26729
   127.64543   263.39859   306.40954    90.29885   109.52438     0.23763     0.37461     1.26551
   128.64266   263.77239   309.95398    89.80244   108.64583     0.23563     0.37267     1.26372
   129.63989   264.15021   313.39317    89.37814   107.77451     0.23410     0.37042     1.26191
   130.63712   264.53163   316.70817    89.02604   106.91143     0.23308     0.36784     1.26009
   131.63435   264.91620   319.88039    88.74616   106.05755     0.23258     0.36493     1.25826
   132.63158   265.30348   322.89175    88.53851   105.21377     0.23264     0.36167     1.25642
   133.62881   265.69302   325.72505    88.40309   104.38094     0.23327     0.35808     1.25458
   134.62604   266.08436   328.36414    88.33990   103.55983     0.23449     0.35415     1.25274
   135.62327   266.47703   330.79428    88.34892   102.75117     0.23632     0.34989     1.25089
   136.62050   266.87056   333.00231    88.43017   101.95565     0.23877     0.34530     1.24904
   137.61773   267.26448   334.97692    88.58365   101.17388     0.24182     0.34039     1.24720
   138.61496   267.65830   336.70887    88.80936   100.40644     0.24549     0.33518     1.24537
   139.61219   268.05155   338.19108    89.10730    99.65387     0.24975     0.32969     1.24354
   140.60942   268.44372   339.41886    89.47745    98.91664     0.25460     0.32393     1.24173
   141.60665   268.83433   340.38989    89.91978    98.19521     0.26001     0.31794     1.23992
   142.60388   269.22289   341.10432    90.43422    97.48997     0.26595     0.31172     1.23813
   143.60111   269.60889   341.56471    91.02062    96.80129     0.27239     0.30531     1.23636
   144.59834   269.99185   341.77599    91.67880    96.12951     0.27930     0.29874     1.23461
   145.59557   270.37127   341.74535    92.40844    95.47491     0.28663     0.29204     1.23287
   146.59280   270.74664   341.48209    93.20913    94.83777     0.28523     0.29435     1.23116
   147.59003   271.11748   340.99740    94.08028    94.21832     0.27836     0.30240     1.22948
   148.58726   271.48329   340.30420    93.61678    95.02113     0.27143     0.31074     1.22782
   149.58449   271.84358   339.41689    93.03332    96.03069     0.26450     0.31931     1.22620
   150.58172   272.19787   338.35110    92.46811    97.10770     0.25758     0.32808     1.22460
   151.57895   272.54568   337.12342    91.92130    98.25061     0.25070     0.33699     1.22304
   152.57618   272.88652   335.75117    91.39300    99.45749     0.24390     0.34598     1.22151
   153.57341   273.21993   334.25215    90.88331   100.72602     0.23719     0.35502     1.22002
   154.57064   273.54545   332.64443    90.39233   102.05340     0.23061     0.36405     1.21857
   155.56787   273.86261   330.94608    89.92013   103.43633     0.22416     0.37303     1.21716
   156.56510   274.17098   329.17503    89.46676   104.87093     0.21788     0.38192     1.21579
   157.56233   274.47012   327.34886    89.03227   106.35272     0.21178     0.39067     1.21446
   158.55956   274.75960   325.48468    88.61670   107.87651     0.20588     0.39925     1.21318
   159.55679   275.03900   323.59898    88.22007   109.43641     0.20019     0.40763     1.21195
   160.55402   275.30793   321.70753    87.84241   111.02576     0.19473     0.41577     1.21077
   161.55125   275.56598   319.82533    87.48372   112.63712     0.18950     0.42364     1.20963
   162.54848   275.81280   317.96650    87.14401   114.26222     0.18451     0.43121     1.20855
   163.54571   276.04801   316.14430    86.82328   115.89198     0.17979     0.43847     1.20752
   164.54294   276.27127   314.37105    86.52152   117.51655     0.17532     0.44538     1.20654
   165.54017   276.48224   312.65817    86.23873   119.12529     0.17112     0.45194     1.20562
   166.53740   276.68062   311.01615    85.97489   120.70690     0.16719     0.45812     1.20476
   167.53463   276.86612   309.45458    85.72999   122.24945     0.16353     0.46390     1.20395
   168.53186   277.03844   307.98217    85.50401   123.74054     0.16015     0.46929     1.20320
   169.52909   277.19734   306.60678    85.29695   125.16746     0.15705     0.47425     1.20251
   170.52632   277.34257   305.33546    85.10877   126.51732     0.15424     0.47879     1.20188
   171.52355   277.47391   304.17445    84.93947   127.77730     0.15170     0.48290     1.20131
   172.52078   277.59117   303.12925    84.78902   128.93485     0.14944     0.48656     1.20081
   173.51801   277.69416   302.20466    84.65742   129.97795     0.14747     0.48978     1.20036
   174.51524   277.78274   301.40479    84.54465   130.89534     0.14578     0.49255     1.19998
   175.51247   277.85676   300.73308    84.45069   131.67681     0.14437     0.49486     1.19966
   176.50970   277.91612   300.19238    84.37554   132.31340     0.14324     0.49671     1.19940
   177.50693   277.96071   299.78492    84.31918   132.79765     0.14240     0.49810     1.19921
   178.50416   277.99048   299.51237    84.28162   133.12378     0.14183     0.49903     1.19908
   179.50139   278.00537   299.37582    84.26283   133.28784     0.14155     0.49950     1.19902
   180.49861   278.00537   299.37582    84.26283   133.28784     0.14155     0.49950     1.19902
   181.49584   277.99048   299.51237    84.28162   133.12378     0.14183     0.49903     1.19908
   182.49307   277.96071   299.78492    84.31918   132.79765     0.14240     0.49810     1.19921
   183.49030   277.91612   300.19238    84.37554   132.31340     0.14324     0.49671     1.19940
   184.48753   277.85676   300.73308    84.45069   131.67681     0.14437     0.49486     1.19966
   185.48476   277.78274   301.40479    84.54465   130.89534     0.14578     0.49255     1.19998
   186.48199   277.69416   302.20466    84.65742   129.97795     0.14747     0.48978     1.20036
   187.47922   277.59117   303.12925    84.78902   128.93485     0.14944     0.48656     1.20081
   188.47645   277.47391   304.17445    84.93947   127.77730     0.15170     0.48290     1.20131
   189.47368   277.34257   305.33546    85.10877   126.51732     0.15424     0.47879     1.20188
   190.47091   277.19734   306.60678    85.29695   125.16746     0.15705     0.47425     1.20251
   191.46814   277.03844   307.98217    85.50401   123.74054     0.16015     0.46929     1.20320
   192.46537   276.86612   309.45458    85.72999   122.24945     0.16353     0.46390     1.20395
   193.46260   276.68062   311.01615    85.97489   120.70690     0.16719     0.45812     1.20476
   194.45983   276.48224   312.65817    86.23873   119.12529     0.17112     0.45194     1.20562
   195.45706   276.27127   314.37105    86.52152   117.51655     0.17532     0.44538     1.20654
   196.45429   276.04801   316.14430    86.82328   115.89198     0.17979     0.43847     1.20752
   197.45152   275.81280   317.96650    87.14401   114.26222     0.18451     0.43121     1.20855
   198.44875   275.56598   319.82533    87.48372   112.63712     0.18950     0.42364     1.20963
   199.44598   275.30793   321.70753    87.84241   111.02576     0.19473     0.41577     1.21077
   200.44321   275.03900   323.59898    88.22007   109.43641     0.20019     0.40763     1.21195
   201.44044   274.75960   325.48468    88.61670   107.87651     0.20588     0.39925     1.21318
   202.43767   274.47012   327.34886    89.03227   106.35272     0.21178     0.39067     1.21446
   203.43490   274.17098   329.17503    89.46676   104.87093     0.21788     0.38192     1.21579
